-0.10477
-0.093136
-0.0815
-0.11641
-0.0815
-0.11641
-0.10477
-0.093136
-0.093136
-0.093136
-0.093136
-0.093136
-0.093136
-0.093136
-0.058227
-0.093136
-0.10477
-0.093136
-0.0815
-0.093136
-0.093136
-0.10477
-0.13968
-0.15132
-0.16295
-0.19786
-0.23277
-0.26768
-0.3375
-0.40732
-0.41896
-0.45386
-0.48877
-0.50041
-0.53532
-0.54695
-0.53532
-0.53532
-0.52368
-0.52368
-0.48877
-0.47714
-0.44223
-0.44223
-0.40732
-0.37241
-0.36077
-0.32586
-0.3375
-0.3375
-0.26768
-0.25605
-0.25605
-0.29096
-0.25605
-0.24441
-0.2095
-0.2095
-0.22114
-0.22114
-0.22114
-0.18623
-0.22114
-0.18623
-0.22114
-0.22114
-0.18623
-0.25605
-0.26768
-0.23277
-0.24441
-0.24441
-0.25605
-0.25605
-0.24441
-0.23277
-0.23277
-0.26768
-0.25605
-0.26768
-0.25605
-0.26768
-0.25605
-0.24441
-0.25605
-0.22114
-0.23277
-0.24441
-0.27932
-0.31423
-0.27932
-0.24441
-0.17459
-0.2095
-0.27932
-0.2095
-0.17459
-0.24441
-0.10477
-0.093136
-0.12804
-0.16295
-0.23277
-0.30259
-0.23277
-0.19786
-0.23277
-0.26768
-0.30259
-0.31423
-0.32586
-0.32586
-0.29096
-0.30259
-0.3375
-0.32586
-0.29096
-0.32586
-0.32586
-0.4655
-0.39568
-0.15132
0.27927
0.52364
0.27927
-0.52368
-1.3382
-1.2684
-1.2335
-0.98914
-0.74477
-0.60514
-0.4655
-0.22114
-0.15132
-0.13968
-0.2095
-0.17459
-0.13968
-0.15132
-0.18623
-0.22114
-0.0815
-0.093136
-0.12804
-0.093136
-0.16295
-0.17459
-0.2095
-0.069864
-4.5e-05
-0.034955
-0.10477
-0.24441
-0.10477
-0.17459
-0.41896
-0.38405
-0.34914
-0.2095
-0.069864
0.058182
0.128
0.058182
-0.069864
-0.10477
-0.17459
-0.13968
-0.17459
-0.24441
-0.31423
-0.32586
-0.36077
-0.43059
-0.4655
-0.43059
-0.50041
-0.57023
-0.58186
-0.61677
-0.65168
-0.58186
-0.51204
-0.50041
-0.51204
-0.47714
-0.48877
-0.34914
-0.31423
-0.34914
-0.27932
-0.31423
-0.38405
-0.34914
-0.27932
-0.2095
-0.17459
-0.24441
-0.31423
-0.24441
-0.27932
-0.24441
-0.24441
-0.2095
-0.22114
-0.25605
-0.18623
-0.25605
-0.22114
-0.23277
-0.37241
-0.30259
-0.30259
-0.26768
-0.12804
-0.058227
-0.12804
-0.26768
-0.19786
-0.12804
-0.13968
-0.12804
-0.16295
-0.16295
-0.093136
-0.12804
-0.19786
-0.3375
-0.19786
-0.16295
-0.12804
-0.11641
-0.0815
-0.11641
-0.11641
-0.12804
-0.16295
-0.093136
-0.023318
-0.058227
0
0.034909
0
-0.058227
-0.093136
-0.12804
-0.11641
-0.12804
-0.11641
-0.11641
-0.15132
-0.11641
-0.15132
-0.13968
-0.15132
-0.18623
-0.11641
-0.11641
-0.11641
-0.15132
-0.22114
-0.29096
-0.15132
0.27927
0.72145
0.47709
-0.32586
-1.1404
-1.1753
-1.1055
-0.86114
-0.61677
-0.37241
-0.23277
-0.093136
-0.023318
0
-0.023318
0
0
0.034909
0.069818
0
0.011636
0.081455
0.011636
0.081455
0.11636
0.10473
0.034909
0.034909
0.069818
0.069818
0.081455
0.069818
0.034909
0.17455
0.17455
0.10473
0.17455
0.13964
0.128
0.11636
0.081455
0.069818
0.13964
0.15127
0.11636
0.046545
0.046545
0.011636
-0.046591
-0.0815
-0.11641
-0.10477
-0.13968
-0.2095
-0.24441
-0.27932
-0.27932
-0.31423
-0.32586
-0.29096
-0.30259
-0.26768
-0.26768
-0.23277
-0.16295
-0.16295
-0.12804
-0.16295
-0.15132
-0.0815
-0.046591
-0.034955
-0.023318
-0.011682
0.046545
0.011636
-0.011682
0.011636
-0.011682
0.011636
0.023273
0.023273
0.034909
0
0.011636
0.011636
0
0.034909
0.034909
0
0.034909
-0.023318
0.034909
0.069818
0.058182
0.023273
0.023273
0.058182
0.093091
0.058182
0.046545
0.011636
0.011636
0.011636
0.023273
-4.5e-05
-0.011682
0.011636
0.023273
0.058182
0.023273
0.023273
0.058182
0.069818
0.034909
0.069818
0.10473
0.13964
0.17455
0.17455
0.13964
0.17455
0.10473
0.069818
0
0.069818
0.034909
0.034909
0
0.034909
-0.023318
0.034909
0
-4.5e-05
-0.011682
0.011636
-0.11641
-0.15132
-0.0815
-0.011682
-0.011682
0.046545
0.29091
0.73309
1.1753
0.73309
-0.069864
-0.88441
-1.024
-0.88441
-0.64004
-0.39568
-0.15132
0.081455
0.081455
0.011636
-0.011682
0.11636
0.256
0.18618
0.046545
0.18618
0.22109
0.36073
0.32582
0.36073
0.29091
0.27927
0.26764
0.30255
0.26764
0.19782
0.16291
0.19782
0.26764
0.30255
0.16291
0.17455
0.20946
0.24436
0.23273
0.30255
0.30255
0.23273
0.30255
0.26764
0.26764
0.23273
0.23273
0.19782
0.128
-4.5e-05
-0.069864
0.058182
-0.069864
-0.31423
-0.30259
-0.26768
-0.23277
-0.093136
-0.093136
-0.12804
-0.26768
-0.30259
-0.23277
0
0.069818
0.10473
0.034909
0.046545
0.11636
0.256
0.18618
0.18618
0.046545
-0.011682
0.011636
0.15127
0.22109
0.29091
0.30255
0.29091
0.36073
0.29091
0.046545
0.011636
0.256
0.29091
0.30255
0.23273
0.23273
0.37236
0.384
0.13964
0
0.13964
0.384
0.41891
0.27927
0.13964
0.13964
0.27927
0.27927
0.24436
0.31418
0.45382
0.52364
0.45382
0.384
0.24436
0.17455
0.18618
0.256
0.32582
0.46546
0.53527
0.39564
0.46546
0.60509
0.67491
0.43055
0.29091
0.32582
0.36073
0.22109
0.20946
0.34909
0.48873
0.41891
0.27927
0.20946
0.19782
0.20946
0.24436
0.31418
0.384
0.384
0.34909
0.36073
0.80291
1.2451
1.1055
0.29091
-0.51204
-0.58186
-0.51204
-0.44223
-0.30259
-0.058227
0.17455
0.41891
0.45382
0.41891
0.48873
0.47709
0.512
0.50036
0.64
0.60509
0.64
0.50036
0.46546
0.50036
0.64
0.62836
0.62836
0.55854
0.62836
0.69818
0.55854
0.62836
0.61673
0.68654
0.68654
0.54691
0.40727
0.65164
0.72145
0.73309
0.66327
0.52364
0.45382
0.59345
0.66327
0.80291
0.55854
0.41891
0.384
0.52364
0.55854
0.41891
0.17455
0.17455
0.16291
0.19782
0.23273
0.22109
0.20946
0.27927
0.31418
0.24436
0.10473
0.13964
0.27927
0.41891
0.45382
0.41891
0.384
0.41891
0.41891
0.48873
0.52364
0.59345
0.55854
0.57018
0.53527
0.50036
0.46546
0.50036
0.57018
0.50036
0.57018
0.64
0.57018
0.43055
0.50036
0.512
0.54691
0.512
0.58182
0.54691
0.54691
0.512
0.54691
0.512
0.50036
0.46546
0.53527
0.60509
0.57018
0.53527
0.57018
0.53527
0.57018
0.43055
0.46546
0.43055
0.57018
0.64
0.67491
0.64
0.62836
0.64
0.65164
0.58182
0.512
0.52364
0.52364
0.45382
0.44218
0.47709
0.46546
0.47709
0.40727
0.37236
0.40727
0.47709
0.512
0.44218
0.47709
0.47709
0.40727
0.33746
0.47709
0.91927
1.1636
1.2335
0.41891
-0.38405
-0.52368
-0.51204
-0.37241
-0.12804
-0.058227
0.17455
0.31418
0.45382
0.52364
0.55854
0.52364
0.55854
0.54691
0.55854
0.59345
0.62836
0.59345
0.58182
0.58182
0.57018
0.60509
0.60509
0.61673
0.60509
0.59345
0.59345
0.62836
0.62836
0.61673
0.58182
0.61673
0.65164
0.61673
0.58182
0.65164
0.64
0.64
0.60509
0.57018
0.57018
0.55854
0.52364
0.48873
0.45382
0.41891
0.384
0.31418
0.27927
0.24436
0.20946
0.20946
0.17455
0.16291
0.15127
0.18618
0.19782
0.18618
0.17455
0.20946
0.24436
0.24436
0.27927
0.31418
0.31418
0.34909
0.33746
0.37236
0.384
0.384
0.384
0.384
0.45382
0.48873
0.45382
0.41891
0.43055
0.43055
0.46546
0.43055
0.43055
0.41891
0.40727
0.40727
0.40727
0.40727
0.37236
0.37236
0.384
0.37236
0.37236
0.36073
0.37236
0.33746
0.34909
0.34909
0.34909
0.33746
0.33746
0.32582
0.36073
0.32582
0.36073
0.43055
0.46546
0.50036
0.50036
0.48873
0.34909
0.33746
0.30255
0.31418
0.27927
0.24436
0.24436
0.20946
0.20946
0.22109
0.18618
0.18618
0.17455
0.18618
0.19782
0.19782
0.16291
0.17455
0.13964
0.20946
0.45382
0.896
1.1404
0.69818
-0.10477
-0.91932
-0.88441
-0.74477
-0.50041
-0.36077
-0.11641
0.011636
0.15127
0.22109
0.23273
0.23273
0.23273
0.24436
0.24436
0.256
0.26764
0.30255
0.26764
0.27927
0.26764
0.26764
0.27927
0.29091
0.29091
0.30255
0.26764
0.30255
0.33746
0.30255
0.30255
0.29091
0.27927
0.31418
0.30255
0.30255
0.30255
0.30255
0.29091
0.256
0.256
0.22109
0.23273
0.19782
0.16291
0.128
0.093091
0.058182
0.023273
-0.034955
-0.069864
-0.058227
-0.046591
-0.0815
-0.093136
-0.10477
-0.093136
-0.0815
-0.046591
-0.034955
-4.5e-05
0
0.034909
0.046545
0.058182
0.069818
0.081455
0.11636
0.128
0.128
0.16291
0.16291
0.17455
0.17455
0.17455
0.17455
0.17455
0.17455
0.17455
0.17455
0.18618
0.19782
0.16291
0.19782
0.16291
0.19782
0.16291
0.17455
0.17455
0.17455
0.20946
0.17455
0.17455
0.20946
0.20946
0.24436
0.27927
0.27927
0.31418
0.34909
0.384
0.31418
0.24436
0.20946
0.17455
0.17455
0.13964
0.13964
0.128
0.093091
0.093091
0.081455
0.081455
0.081455
0.069818
0.081455
0.093091
0.093091
0.058182
0.069818
0.081455
0.093091
0.16291
0.40727
0.84945
1.0938
0.65164
-0.15132
-0.96586
-0.89604
-0.75641
-0.51204
-0.37241
-0.23277
-0.093136
0.13964
0.15127
0.11636
0.15127
0.18618
0.22109
0.22109
0.23273
0.19782
0.23273
0.24436
0.256
0.26764
0.26764
0.26764
0.30255
0.30255
0.30255
0.31418
0.31418
0.31418
0.32582
0.32582
0.32582
0.33746
0.37236
0.37236
0.33746
0.37236
0.37236
0.33746
0.33746
0.34909
0.31418
0.34909
0.31418
0.27927
0.20946
0.17455
0.17455
0.13964
0.069818
0.034909
0.023273
0.034909
0.034909
0
0.034909
0
0.034909
0.046545
0.058182
0.069818
0.10473
0.093091
0.093091
0.128
0.16291
0.19782
0.20946
0.22109
0.256
0.22109
0.256
0.22109
0.23273
0.26764
0.256
0.256
0.24436
0.27927
0.24436
0.24436
0.27927
0.24436
0.27927
0.24436
0.24436
0.24436
0.256
0.26764
0.30255
0.37236
0.33746
0.40727
0.40727
0.37236
0.30255
0.26764
0.23273
0.24436
0.23273
0.23273
0.24436
0.17455
0.16291
0.19782
0.16291
0.17455
0.16291
0.19782
0.18618
0.18618
0.18618
0.15127
0.18618
0.15127
0.18618
0.43055
0.87273
1.1171
1.0473
0.23273
-0.57023
-0.81459
-0.77968
-0.53532
-0.39568
-0.15132
-0.011682
0.11636
0.256
0.29091
0.29091
0.30255
0.30255
0.33746
0.32582
0.36073
0.36073
0.36073
0.36073
0.34909
0.384
0.384
0.384
0.41891
0.41891
0.384
0.41891
0.45382
0.41891
0.45382
0.45382
0.44218
0.45382
0.45382
0.46546
0.46546
0.50036
0.46546
0.50036
0.43055
0.41891
0.384
0.41891
0.384
0.34909
0.31418
0.30255
0.26764
0.23273
0.16291
0.093091
0.128
0.16291
0.16291
0.128
0.13964
0.15127
0.18618
0.18618
0.17455
0.17455
0.20946
0.22109
0.23273
0.26764
0.27927
0.24436
0.256
0.29091
0.27927
0.29091
0.32582
0.31418
0.27927
0.29091
0.29091
0.30255
0.30255
0.31418
0.34909
0.27927
0.27927
0.27927
0.27927
0.29091
0.29091
0.27927
0.27927
0.27927
0.26764
0.256
0.29091
0.29091
0.256
0.22109
0.256
0.26764
0.27927
0.24436
0.27927
0.26764
0.27927
0.27927
0.31418
0.34909
0.36073
0.39564
0.40727
0.37236
0.30255
0.26764
0.23273
0.23273
0.23273
0.23273
0.19782
0.16291
0.17455
0.13964
0.13964
0.128
0.128
0.11636
0.11636
0.15127
0.13964
0.13964
0.128
0.13964
0.384
0.82618
1.0705
1.1055
0.29091
-0.51204
-0.95423
-0.95423
-0.70986
-0.4655
-0.22114
-0.0815
0.046545
0.11636
0.15127
0.16291
0.17455
0.18618
0.17455
0.18618
0.19782
0.20946
0.22109
0.18618
0.18618
0.22109
0.22109
0.23273
0.23273
0.23273
0.24436
0.24436
0.27927
0.26764
0.26764
0.26764
0.23273
0.24436
0.256
0.24436
0.24436
0.24436
0.24436
0.27927
0.24436
0.20946
0.19782
0.19782
0.16291
0.128
0.093091
0.058182
0.023273
-4.5e-05
-0.034955
-0.069864
-0.10477
-0.10477
-0.13968
-0.12804
-0.11641
-0.0815
-0.15132
-0.0815
-0.069864
-0.034955
-0.034955
-0.034955
-0.046591
-0.011682
0.011636
-0.011682
0.011636
0.023273
0.058182
0.046545
0.046545
0.046545
0.058182
0.058182
0.058182
0.058182
0.058182
0.023273
0.058182
0.058182
0.023273
0.023273
0.011636
0.011636
0.023273
0.023273
0.023273
0.023273
0.023273
0.034909
0
-4.5e-05
-4.5e-05
-4.5e-05
-0.011682
-0.011682
-0.011682
-0.023318
-0.023318
-0.034955
-4.5e-05
-0.034955
-4.5e-05
0.058182
0.058182
0.093091
0.128
0.128
0.11636
0.128
0.11636
0.046545
0.011636
-0.011682
-0.011682
-0.046591
-0.058227
-0.069864
-0.10477
-0.069864
-0.10477
-0.093136
-0.058227
-0.093136
-0.093136
-0.093136
-0.10477
-0.093136
-0.058227
0
0.24436
0.68654
0.93091
0.48873
-0.31423
-1.1288
-1.1986
-1.059
-0.81459
-0.67495
-0.43059
-0.18623
-0.046591
-0.058227
-0.058227
-0.058227
-0.023318
-0.011682
-4.5e-05
-0.011682
-0.023318
0
-0.023318
0
0.011636
0.023273
0.023273
0.023273
0.011636
0.011636
0.046545
0.011636
0.046545
0.046545
0.081455
0.046545
0.058182
0.093091
0.058182
0.058182
0.058182
0.046545
0.034909
0.023273
-4.5e-05
-0.011682
-0.023318
-0.034955
-0.10477
-0.13968
-0.17459
-0.2095
-0.24441
-0.27932
-0.31423
-0.34914
-0.36077
-0.36077
-0.36077
-0.36077
-0.36077
-0.34914
-0.3375
-0.32586
-0.29096
-0.25605
-0.25605
-0.24441
-0.24441
-0.2095
-0.2095
-0.17459
-0.17459
-0.17459
-0.16295
-0.16295
-0.17459
-0.16295
-0.12804
-0.13968
-0.13968
-0.13968
-0.13968
-0.15132
-0.15132
-0.18623
-0.18623
-0.17459
-0.17459
-0.18623
-0.22114
-0.18623
-0.22114
-0.2095
-0.19786
-0.18623
-0.19786
-0.2095
-0.2095
-0.22114
-0.22114
-0.22114
-0.2095
-0.22114
-0.18623
-0.17459
-0.13968
-0.10477
-0.093136
-0.093136
-0.10477
-0.13968
-0.27932
-0.24441
-0.24441
-0.25605
-0.29096
-0.29096
-0.29096
-0.32586
-0.3375
-0.32586
-0.32586
-0.3375
-0.34914
-0.36077
-0.32586
-0.31423
-0.27932
-0.31423
-0.24441
0.18618
0.62836
0.61673
-0.18623
-1.0008
-1.443
-1.3731
-1.2335
-0.98914
-0.8495
-0.60514
-0.4655
-0.32586
-0.29096
-0.27932
-0.26768
-0.23277
-0.24441
-0.23277
-0.22114
-0.22114
-0.2095
-0.22114
-0.2095
-0.19786
-0.18623
-0.17459
-0.17459
-0.17459
-0.13968
-0.15132
-0.16295
-0.19786
-0.16295
-0.15132
-0.13968
-0.13968
-0.13968
-0.12804
-0.12804
-0.12804
-0.12804
-0.13968
-0.17459
-0.18623
-0.22114
-0.23277
-0.24441
-0.27932
-0.31423
-0.34914
-0.38405
-0.41896
-0.48877
-0.50041
-0.53532
-0.53532
-0.54695
-0.55859
-0.52368
-0.52368
-0.51204
-0.47714
-0.51204
-0.50041
-0.4655
-0.43059
-0.39568
-0.39568
-0.36077
-0.36077
-0.34914
-0.3375
-0.30259
-0.3375
-0.3375
-0.32586
-0.32586
-0.31423
-0.31423
-0.34914
-0.31423
-0.32586
-0.31423
-0.31423
-0.32586
-0.32586
-0.32586
-0.36077
-0.34914
-0.31423
-0.34914
-0.36077
-0.36077
-0.32586
-0.36077
-0.37241
-0.37241
-0.37241
-0.36077
-0.36077
-0.36077
-0.34914
-0.36077
-0.34914
-0.31423
-0.31423
-0.27932
-0.24441
-0.24441
-0.23277
-0.22114
-0.25605
-0.32586
-0.39568
-0.39568
-0.38405
-0.38405
-0.41896
-0.43059
-0.50041
-0.4655
-0.43059
-0.4655
-0.4655
-0.4655
-0.45386
-0.48877
-0.45386
-0.45386
-0.44223
-0.43059
-0.18623
0.24436
0.48873
0.046545
-0.75641
1.408
1.3963
-1.443
-1.1986
-1.059
-0.81459
-0.67495
-0.43059
-0.43059
-0.41896
-0.40732
-0.39568
-0.39568
-0.38405
-0.34914
-0.36077
-0.37241
-0.3375
-0.34914
-0.3375
-0.34914
-0.3375
-0.34914
-0.34914
-0.31423
-0.31423
-0.31423
-0.30259
-0.29096
-0.32586
-0.29096
-0.30259
-0.30259
-0.30259
-0.31423
-0.31423
-0.31423
-0.32586
-0.36077
-0.32586
-0.36077
-0.36077
-0.37241
-0.40732
-0.44223
-0.51204
-0.54695
-0.55859
-0.5935
-0.62841
-0.66332
-0.67495
-0.68659
-0.68659
-0.69823
-0.66332
-0.62841
-0.61677
-0.58186
-0.58186
-0.57023
-0.57023
-0.53532
-0.53532
-0.50041
-0.51204
-0.52368
-0.51204
-0.51204
-0.50041
-0.48877
-0.45386
-0.44223
-0.47714
-0.4655
-0.45386
-0.45386
-0.48877
-0.48877
-0.45386
-0.4655
-0.47714
-0.47714
-0.44223
-0.45386
-0.48877
-0.48877
-0.52368
-0.45386
-0.44223
-0.45386
-0.48877
-0.47714
-0.47714
-0.48877
-0.50041
-0.4655
-0.43059
-0.4655
-0.43059
-0.39568
-0.39568
-0.36077
-0.32586
-0.31423
-0.34914
-0.31423
-0.32586
-0.39568
-0.43059
-0.43059
-0.43059
-0.4655
-0.4655
-0.50041
-0.51204
-0.47714
-0.51204
-0.51204
-0.52368
-0.48877
-0.48877
-0.48877
-0.45386
-0.45386
-0.48877
-0.41896
0.011636
0.45382
0.59345
0.15127
-0.65168
-1.4662
1.4429
-1.4662
-1.2219
-1.0822
-0.83786
-0.5935
-0.52368
-0.45386
-0.38405
-0.34914
-0.38405
-0.37241
-0.38405
-0.31423
-0.31423
-0.34914
-0.31423
-0.31423
-0.30259
-0.30259
-0.30259
-0.3375
-0.30259
-0.29096
-0.25605
-0.22114
-0.25605
-0.24441
-0.27932
-0.24441
-0.2095
-0.19786
-0.2095
-0.2095
-0.2095
-0.22114
-0.22114
-0.25605
-0.26768
-0.26768
-0.3375
-0.37241
-0.38405
-0.41896
-0.43059
-0.4655
-0.4655
-0.53532
-0.54695
-0.58186
-0.61677
-0.60514
-0.64004
-0.60514
-0.57023
-0.53532
-0.54695
-0.53532
-0.57023
-0.53532
-0.50041
-0.4655
-0.43059
-0.43059
-0.43059
-0.43059
-0.39568
-0.40732
-0.39568
-0.36077
-0.36077
-0.37241
-0.38405
-0.41896
-0.38405
-0.34914
-0.34914
-0.3375
-0.34914
-0.38405
-0.41896
-0.34914
-0.3375
-0.32586
-0.36077
-0.39568
-0.36077
-0.37241
-0.37241
-0.37241
-0.38405
-0.38405
-0.39568
-0.36077
-0.37241
-0.37241
-0.38405
-0.37241
-0.36077
-0.37241
-0.36077
-0.32586
-0.29096
-0.25605
-0.25605
-0.29096
-0.25605
-0.24441
-0.31423
-0.34914
-0.36077
-0.37241
-0.40732
-0.39568
-0.43059
-0.44223
-0.45386
-0.48877
-0.41896
-0.40732
-0.41896
-0.43059
-0.41896
-0.41896
-0.45386
-0.41896
-0.41896
-0.17459
0.256
0.50036
0.256
-0.54695
-1.3615
1.373
-1.4662
-1.2219
-0.9775
-0.73314
-0.48877
-0.34914
-0.34914
-0.31423
-0.30259
-0.30259
-0.29096
-0.32586
-0.29096
-0.32586
-0.25605
-0.24441
-0.25605
-0.26768
-0.30259
-0.30259
-0.29096
-0.25605
-0.22114
-0.15132
-0.18623
-0.18623
-0.17459
-0.17459
-0.16295
-0.17459
-0.18623
-0.18623
-0.17459
-0.18623
-0.17459
-0.2095
-0.2095
-0.24441
-0.25605
-0.26768
-0.26768
-0.30259
-0.3375
-0.37241
-0.44223
-0.51204
-0.52368
-0.52368
-0.55859
-0.5935
-0.5935
-0.60514
-0.60514
-0.57023
-0.53532
-0.50041
-0.50041
-0.50041
-0.4655
-0.43059
-0.43059
-0.39568
-0.36077
-0.36077
-0.32586
-0.36077
-0.36077
-0.32586
-0.32586
-0.31423
-0.30259
-0.30259
-0.30259
-0.37241
-0.3375
-0.30259
-0.30259
-0.37241
-0.30259
-0.26768
-0.25605
-0.29096
-0.30259
-0.31423
-0.31423
-0.30259
-0.3375
-0.32586
-0.32586
-0.29096
-0.27932
-0.29096
-0.30259
-0.29096
-0.29096
-0.30259
-0.31423
-0.27932
-0.26768
-0.26768
-0.26768
-0.23277
-0.19786
-0.2095
-0.17459
-0.13968
-0.17459
-0.24441
-0.31423
-0.30259
-0.31423
-0.30259
-0.30259
-0.3375
-0.37241
-0.38405
-0.38405
-0.37241
-0.37241
-0.36077
-0.37241
-0.37241
-0.36077
-0.39568
-0.38405
-0.39568
-0.15132
0.27927
0.72145
-0.0815
-0.89604
-1.3382
-1.4779
-1.3382
-1.0939
-0.8495
-0.70986
-0.4655
-0.32586
-0.31423
-0.27932
-0.29096
-0.25605
-0.24441
-0.23277
-0.22114
-0.25605
-0.24441
-0.23277
-0.19786
-0.16295
-0.17459
-0.17459
-0.17459
-0.17459
-0.18623
-0.15132
-0.18623
-0.15132
-0.11641
-0.11641
-0.15132
-0.11641
-0.15132
-0.11641
-0.11641
-0.11641
-0.11641
-0.11641
-0.12804
-0.12804
-0.16295
-0.16295
-0.19786
-0.23277
-0.24441
-0.25605
-0.29096
-0.32586
-0.39568
-0.43059
-0.43059
-0.44223
-0.47714
-0.44223
-0.47714
-0.47714
